# time = 2.000000000000e-09
# x  density  temperature  T_rad  velocity_x  pressure  mass_coord
-5.655956980968e-02 3.263080218585e-04 1.188487207416e+06 1.187705104572e+06 -3.198659060874e+07 8.865977641770e+09 1.974677256712e-06
-5.098901817082e-02 3.847026412811e-04 1.187221938124e+06 1.187522436048e+06 -2.895976823930e+07 1.019704306824e+10 3.921201459709e-06
-4.643993976757e-02 6.106889501818e-04 1.187056211900e+06 1.187296349579e+06 -2.687262003210e+07 1.516962543252e+10 6.580368740091e-06
-4.228027281170e-02 9.249377527836e-04 1.186752424444e+06 1.186967451073e+06 -2.473567471702e+07 2.166948088987e+10 1.022357012991e-05
-3.856221744764e-02 1.339389885646e-03 1.186328537378e+06 1.186509560613e+06 -2.276766907197e+07 2.977717855197e+10 1.487614004976e-05
-3.533297543442e-02 1.863019030353e-03 1.185763390546e+06 1.185912268051e+06 -2.105183000602e+07 3.951839326656e+10 2.050002958874e-05
-3.252482389733e-02 2.493736437049e-03 1.185050335902e+06 1.185171592289e+06 -1.956246559946e+07 5.073245726777e+10 2.707049389736e-05
-3.006340146421e-02 3.229541122270e-03 1.184186886160e+06 1.184286152839e+06 -1.826214490456e+07 6.329203331095e+10 3.451857696192e-05
-2.791235247642e-02 4.061555230566e-03 1.183179872798e+06 1.183260197537e+06 -1.712587875770e+07 7.697899159058e+10 4.269316953851e-05
-2.603805052718e-02 4.974280619054e-03 1.182045756741e+06 1.182115180256e+06 -1.613391533939e+07 9.149944330702e+10 5.142510290059e-05
-2.440151984320e-02 5.952040173639e-03 1.180803430712e+06 1.180860638007e+06 -1.526580882972e+07 1.065889913191e+11 6.057300781121e-05
-2.296417849549e-02 6.982362791375e-03 1.179469189444e+06 1.179523004754e+06 -1.450159179689e+07 1.220551705026e+11 7.003523792590e-05
-2.169119659092e-02 8.056629278147e-03 1.178055003158e+06 1.178099080042e+06 -1.382332273349e+07 1.377756167846e+11 7.974843345148e-05
-2.055294789514e-02 9.169690356063e-03 1.176568342873e+06 1.176611011705e+06 -1.321568740089e+07 1.536837747448e+11 8.967911758118e-05
-1.952521633551e-02 1.031907431539e-02 1.175013149718e+06 1.175047093805e+06 -1.266609969681e+07 1.697520186677e+11 9.981366977006e-05
-1.858871120508e-02 1.150408646435e-02 1.173390814091e+06 1.173422292720e+06 -1.216447616228e+07 1.859759048595e+11 1.101497215360e-04
-1.772828064697e-02 1.272502134883e-02 1.171701311392e+06 1.171726642134e+06 -1.170285162903e+07 2.023619895075e+11 1.206901312938e-04
-1.693206805001e-02 1.398266356210e-02 1.169943799222e+06 1.169965781272e+06 -1.127497130963e+07 2.189207206119e+11 1.314395601732e-04
-1.619074399215e-02 1.527803856746e-02 1.168117092089e+06 1.168136857623e+06 -1.087590874250e+07 2.356632656882e+11 1.424030554933e-04
-1.549687134309e-02 1.661228614166e-02 1.166219768517e+06 1.166236329386e+06 -1.050173101673e+07 2.526000736457e+11 1.535858417895e-04
-1.484441679783e-02 1.798662172003e-02 1.164250178638e+06 1.164267904874e+06 -1.014923802094e+07 2.697405918608e+11 1.649936289704e-04
-1.422839665579e-02 1.940239336974e-02 1.162206437731e+06 1.162221294114e+06 -9.815782879128e+06 2.870941568137e+11 1.766329886907e-04
-1.364463082314e-02 2.086117807913e-02 1.160086278040e+06 1.160104082150e+06 -9.499151549204e+06 3.046712019344e+11 1.885115709957e-04
-1.308957484429e-02 2.236483017600e-02 1.157887127958e+06 1.157902020790e+06 -9.197474425752e+06 3.224838200405e+11 2.006380920130e-04
-1.256020309247e-02 2.391544598604e-02 1.155605977160e+06 1.155624194901e+06 -8.909155901100e+06 3.405451438210e+11 2.130221274716e-04
-1.205392320176e-02 2.551527176309e-02 1.153239563582e+06 1.153254856037e+06 -8.632818818082e+06 3.588681960157e+11 2.256737983218e-04
-1.156850910091e-02 2.716661799053e-02 1.150784262236e+06 1.150802444961e+06 -8.367265140233e+06 3.774647542577e+11 2.386034420258e-04
-1.110204588612e-02 2.887185283293e-02 1.148236322121e+06 1.148252017349e+06 -8.111454205465e+06 3.963453805964e+11 2.518213469883e-04
-1.065288341945e-02 3.063350595341e-02 1.145591735670e+06 1.145609521888e+06 -7.864494296557e+06 4.155205513446e+11 2.653375999239e-04
-1.021959691302e-02 3.245442214561e-02 1.142846375794e+06 1.142862435907e+06 -7.625635334977e+06 4.350024011510e+11 2.791620568921e-04
-9.800952862421e-03 3.433784159790e-02 1.139995871963e+06 1.140013198585e+06 -7.394250172427e+06 4.548053532172e+11 2.933044060131e-04
-9.395878911954e-03 3.628732770789e-02 1.137035665187e+06 1.137052014786e+06 -7.169802485354e+06 4.749450617213e+11 3.077742643874e-04
-9.003437074496e-03 3.830657880477e-02 1.133960906122e+06 1.133977901038e+06 -6.951811244364e+06 4.954360162126e+11 3.225812564917e-04
-8.622800627950e-03 4.039923949571e-02 1.130766481817e+06 1.130783047415e+06 -6.739824554396e+06 5.162893586694e+11 3.377350473350e-04
-8.253235286915e-03 4.256881863874e-02 1.127446979510e+06 1.127463830358e+06 -6.533409479261e+06 5.375119526849e+11 3.532453316181e-04
-7.894084878767e-03 4.481876273818e-02 1.123996693027e+06 1.124013436785e+06 -6.332156684997e+06 5.591071987168e+11 3.691217986243e-04
-7.544761155267e-03 4.715267397686e-02 1.120409594280e+06 1.120426467921e+06 -6.135693975374e+06 5.810772855358e+11 3.853741001707e-04
-7.204736844998e-03 4.957460830926e-02 1.116679327422e+06 1.116696247350e+06 -5.943700628801e+06 6.034261139487e+11 4.020118463086e-04
-6.873540677473e-03 5.208934095463e-02 1.112799158918e+06 1.112816162568e+06 -5.755914128307e+06 6.261616019588e+11 4.190446409275e-04
-6.550752966272e-03 5.470247205908e-02 1.108761921211e+06 1.108779021499e+06 -5.572123422120e+06 6.492961254298e+11 4.364821505978e-04
-6.236000580510e-03 5.742029870846e-02 1.104559937866e+06 1.104577122248e+06 -5.392148820468e+06 6.728444782230e+11 4.543341826346e-04
-5.928950835727e-03 6.024950482072e-02 1.100184963474e+06 1.100202264976e+06 -5.215816274270e+06 6.968201015211e+11 4.726107416334e-04
-5.629304839085e-03 6.319686780631e-02 1.095628127495e+06 1.095645543015e+06 -5.042939103836e+06 7.212316912718e+11 4.913220442119e-04
-5.336791659870e-03 6.626924246161e-02 1.090879889707e+06 1.090897453546e+06 -4.873318318397e+06 7.460827008818e+11 5.104784971653e-04
-5.051164747488e-03 6.947394925493e-02 1.085929990365e+06 1.085947711535e+06 -4.706761519237e+06 7.713746823924e+11 5.300906689171e-04
-4.772200990643e-03 7.281939298298e-02 1.080767372250e+06 1.080785271278e+06 -4.543106080970e+06 7.971124180264e+11 5.501692876530e-04
-4.499701245436e-03 7.631550515075e-02 1.075380053312e+06 1.075398141234e+06 -4.382227368308e+06 8.233068036632e+11 5.707252779035e-04
-4.233490273603e-03 7.997370861676e-02 1.069754998410e+06 1.069773294163e+06 -4.224024289009e+06 8.499729212350e+11 5.917698220473e-04
-3.973414681819e-03 8.380652685213e-02 1.063877974086e+06 1.063896496886e+06 -4.068393918116e+06 8.771248211761e+11 6.133144301987e-04
-3.719339193475e-03 8.782732988168e-02 1.057733397038e+06 1.057752169479e+06 -3.915216247648e+06 9.047717244470e+11 6.353710199703e-04
-3.471143013052e-03 9.205065192599e-02 1.051304143209e+06 1.051323188352e+06 -3.764360502388e+06 9.329192546160e+11 6.579520088918e-04
-3.228718248395e-03 9.649304743722e-02 1.044571319505e+06 1.044590661587e+06 -3.615705361503e+06 9.615748219040e+11 6.810703564893e-04
-2.991971752292e-03 1.011739398458e-01 1.037514048218e+06 1.037533710813e+06 -3.469154179092e+06 9.907520395444e+11 7.047392073814e-04
-2.760833911221e-03 1.061159813409e-01 1.030109119011e+06 1.030129129196e+06 -3.324626549528e+06 1.020469907270e+12 7.289724491892e-04
-2.535240513480e-03 1.113445915795e-01 1.022330921634e+06 1.022351313575e+06 -3.182038569494e+06 1.050745144234e+12 7.537823063641e-04
-2.315192918281e-03 1.168868006288e-01 1.014152554139e+06 1.014173368203e+06 -3.041309663335e+06 1.081581164509e+12 7.791728245872e-04
-2.100794227220e-03 1.227707342976e-01 1.005547519683e+06 1.005568799816e+06 -2.902399956402e+06 1.112964419375e+12 8.051351080446e-04
-1.892253630577e-03 1.290262926112e-01 9.964911605148e+05 9.965129509927e+05 -2.765352733592e+06 1.144870426140e+12 8.316438833854e-04
-1.689889212367e-03 1.356856947059e-01 9.869618236606e+05 9.869841699123e+05 -2.630311118005e+06 1.177268187500e+12 8.586555645004e-04
-1.494102872334e-03 1.427829996495e-01 9.769413053738e+05 9.769642599971e+05 -2.497486086060e+06 1.210115697847e+12 8.861101326917e-04
-1.305325668267e-03 1.503532318018e-01 9.664140130249e+05 9.664376411501e+05 -2.367088597227e+06 1.243350799365e+12 9.139369140437e-04
-1.123950784233e-03 1.584327070143e-01 9.553648804884e+05 9.553892625204e+05 -2.239268629463e+06 1.276888420771e+12 9.420623410514e-04
-9.502799515366e-04 1.670627283262e-01 9.437765733190e+05 9.438017947942e+05 -2.114109450611e+06 1.310637792203e+12 9.704171036759e-04
-7.845002926893e-04 1.762969679039e-01 9.316264198022e+05 9.316525684641e+05 -1.991673724217e+06 1.344537708397e+12 9.989411691240e-04
-6.266888451519e-04 1.862071882647e-01 9.188834560106e+05 9.189106295794e+05 -1.872007100896e+06 1.378571132881e+12 1.027586398137e-03
-4.768297963989e-04 1.968824491621e-01 9.055058720232e+05 9.055342018759e+05 -1.755054775130e+06 1.412731420369e+12 1.056316775286e-03
-3.348357391838e-04 2.084294222858e-01 8.914391767410e+05 8.914688229501e+05 -1.640624153754e+06 1.446995083883e+12 1.085106705692e-03
-2.005738811819e-04 2.209850513788e-01 8.766142012625e+05 8.766453361275e+05 -1.528491555442e+06 1.481362144774e+12 1.113938815928e-03
-7.389401434087e-05 2.347361437502e-01 8.609437577080e+05 8.609765770201e+05 -1.418510014370e+06 1.515911923564e+12 1.142802506425e-03
4.535067083351e-05 2.499230673373e-01 8.443178802471e+05 8.443526864005e+05 -1.310464309404e+06 1.550738541623e+12 1.171692487012e-03
1.572969749112e-04 2.668269932294e-01 8.265995991026e+05 8.266368058289e+05 -1.203781248944e+06 1.585789172153e+12 1.200606016490e-03
2.620718438168e-04 2.858355763878e-01 8.076183293109e+05 8.076582459612e+05 -1.097984884549e+06 1.621083620498e+12 1.229542248593e-03
3.597646485918e-04 3.075975452770e-01 7.871497387230e+05 7.871927486413e+05 -9.934455650800e+05 1.657191057974e+12 1.258505876483e-03
4.503934239765e-04 3.329347380019e-01 7.648912138837e+05 7.649384909395e+05 -8.895472371575e+05 1.694352857518e+12 1.287502661729e-03
5.339536528368e-04 3.627474262659e-01 7.404550587830e+05 7.405076690614e+05 -7.834599544986e+05 1.731702195326e+12 1.316530535482e-03
6.104379709600e-04 3.988724489342e-01 7.133007447365e+05 7.133582097582e+05 -6.764566206812e+05 1.769983044230e+12 1.345602131325e-03
6.797225367014e-04 4.450476048576e-01 6.825150625920e+05 6.825791373280e+05 -5.718134978477e+05 1.812277485848e+12 1.374742219229e-03
7.413906492187e-04 5.072849736524e-01 6.466061718357e+05 6.466815069807e+05 -4.546782313386e+05 1.860184492277e+12 1.403928118577e-03
7.947896128559e-04 5.862346996183e-01 6.032181959207e+05 6.032992669812e+05 -3.281316756156e+05 1.885020812550e+12 1.433079557510e-03
8.408437827589e-04 6.965183589650e-01 5.484501882889e+05 5.485335183983e+05 -1.951378539754e+05 1.877401067539e+12 1.459947416854e-03
8.719386470424e-04 1.671054104885e+00 3.852340494127e+05 3.858945374812e+05 1.200441847635e+05 2.264367189211e+12 1.494492303892e-03
8.821888079585e-04 9.802946036532e+00 1.436908483716e+05 1.437619142419e+05 3.191237982049e+05 2.140271204978e+12 1.552292446912e-03
8.837310496128e-04 3.380191330758e+01 7.393960580838e+04 7.400705386483e+04 3.304086057593e+05 2.143425836609e+12 1.590325781776e-03
8.844391737599e-04 4.241761082339e+01 6.568549134498e+04 6.596555488310e+04 3.313057797506e+05 2.156037982186e+12 1.619649971579e-03
8.851136918331e-04 4.294337634136e+01 6.539983719855e+04 6.568775253104e+04 3.318393130105e+05 2.163858891810e+12 1.648511098432e-03
8.857833217665e-04 4.338893286624e+01 6.518197819689e+04 6.548278733165e+04 3.327141574108e+05 2.171528431969e+12 1.677476854483e-03
8.864488597728e-04 4.381503035397e+01 6.500256705705e+04 6.531786824515e+04 3.336025069762e+05 2.180219608637e+12 1.706535865229e-03
8.871097620548e-04 4.426055700452e+01 6.480600233072e+04 6.512952499418e+04 3.344905486006e+05 2.188640502504e+12 1.735604625601e-03
8.877623886725e-04 4.474315977508e+01 6.457282953127e+04 6.458112724148e+04 3.353114422715e+05 2.196444203856e+12 1.764615610050e-03
8.884065405834e-04 4.523357301786e+01 6.431420241696e+04 6.431420267961e+04 3.360135125437e+05 2.202941366400e+12 1.793593123885e-03
8.890436278894e-04 4.566017039895e+01 6.406922290455e+04 6.406922314776e+04 3.365253104867e+05 2.207277581605e+12 1.822583070839e-03
8.896763539327e-04 4.599180917213e+01 6.384756216537e+04 6.384756217555e+04 3.367347601189e+05 2.208776047213e+12 1.851615065723e-03
8.903061133365e-04 4.625939350178e+01 6.363243377394e+04 6.363243382499e+04 3.367911579060e+05 2.207868210338e+12 1.880688695215e-03
8.909333366682e-04 4.653351794510e+01 6.339585127178e+04 6.339585120496e+04 3.367034593579e+05 2.205929106201e+12 1.909773385480e-03
8.915561666981e-04 4.682560113449e+01 6.311029907384e+04 6.311029907067e+04 3.364402686846e+05 2.201869724935e+12 1.938805572475e-03
8.921733500921e-04 4.710566938026e+01 6.280092365196e+04 6.280092373380e+04 3.359958105622e+05 2.195857394979e+12 1.967792688979e-03
8.927868939921e-04 4.732789254277e+01 6.251138789063e+04 6.251138811772e+04 3.354234827189e+05 2.188522102806e+12 1.996800995204e-03
8.933991940782e-04 4.748340816572e+01 6.226378591467e+04 6.226378604472e+04 3.348007477937e+05 2.180812894465e+12 2.025833923743e-03
8.940097602378e-04 4.760677661549e+01 6.204959914003e+04 6.204959917770e+04 3.342075746439e+05 2.173667262502e+12 2.054911593229e-03
8.946207709861e-04 4.777060418116e+01 6.183099944597e+04 6.183099947560e+04 3.337125294676e+05 2.167822930655e+12 2.084016665434e-03
8.952282950545e-04 4.801724564191e+01 6.158365280157e+04 6.158365275659e+04 3.333364433069e+05 2.163524864530e+12 2.113056462465e-03
8.958303279544e-04 4.832513592498e+01 6.132664969294e+04 6.132664988799e+04 3.330909452479e+05 2.160942364855e+12 2.142047911078e-03
8.964281447003e-04 4.865608728561e+01 6.109513198661e+04 6.109513206898e+04 3.330477822105e+05 2.160548880290e+12 2.171046975072e-03
8.970223294330e-04 4.893858742806e+01 6.090659851521e+04 6.090659861622e+04 3.330599603586e+05 2.160621686933e+12 2.200071084169e-03
8.976142888300e-04 4.917519244178e+01 6.075761657599e+04 6.075761673409e+04 3.331090192382e+05 2.161117264490e+12 2.229137258844e-03
8.982044773101e-04 4.942871255213e+01 6.061022503365e+04 6.061022504616e+04 3.332241979191e+05 2.162276255630e+12 2.258236849519e-03
8.987917255534e-04 4.974187641292e+01 6.043892538454e+04 6.043892528121e+04 3.334053001400e+05 2.164229853461e+12 2.287317776696e-03
8.993737507382e-04 5.012924651946e+01 6.023750564584e+04 6.023750564814e+04 3.336558546563e+05 2.167110858290e+12 2.316327500804e-03
8.999491227266e-04 5.055471605447e+01 6.003178856832e+04 6.003178886251e+04 3.339810498689e+05 2.171004088757e+12 2.345281895799e-03
9.005192183525e-04 5.095427474320e+01 5.986275372024e+04 5.986275392270e+04 3.343846833173e+05 2.175913317497e+12 2.374274660543e-03
9.010871141862e-04 5.130444022741e+01 5.974327252705e+04 5.974327273057e+04 3.348645895295e+05 2.181781329046e+12 2.403330823036e-03
9.016519141724e-04 5.163001951433e+01 5.965491345747e+04 5.965491343723e+04 3.354114135564e+05 2.188494546509e+12 2.432435245353e-03
9.022145366660e-04 5.199273745814e+01 5.955584500182e+04 5.955584466738e+04 3.360116070614e+05 2.195863206392e+12 2.461554294064e-03
9.027720340251e-04 5.242522997917e+01 5.942220517558e+04 5.942220518509e+04 3.366466379267e+05 2.203627925955e+12 2.490613910359e-03
9.033231485427e-04 5.291638794270e+01 5.925802824656e+04 5.925802812221e+04 3.372926478189e+05 2.211559496867e+12 2.519618895962e-03
9.038682912237e-04 5.342220220645e+01 5.908751657710e+04 5.908751669204e+04 3.379239306808e+05 2.219470945413e+12 2.548585121369e-03
9.044075750249e-04 5.387435240809e+01 5.894764318395e+04 5.894764336361e+04 3.385239345453e+05 2.227154962267e+12 2.577562915582e-03
9.049440459351e-04 5.423928880581e+01 5.884816792052e+04 5.884816799315e+04 3.390558534785e+05 2.234077790552e+12 2.606610298283e-03
9.054786577526e-04 5.451986719478e+01 5.876536336787e+04 5.876536320995e+04 3.394099558422e+05 2.238963162537e+12 2.635726420032e-03
9.060121381094e-04 5.474592088253e+01 5.865236077755e+04 5.865236067756e+04 3.394739674715e+05 2.240035298438e+12 2.664861363920e-03
9.065430272405e-04 5.501568942843e+01 5.849987082101e+04 5.849987060963e+04 3.394315071755e+05 2.240174455353e+12 2.693956794680e-03
9.070698520475e-04 5.532337719129e+01 5.831114601482e+04 5.831114604980e+04 3.393398484800e+05 2.239337428026e+12 2.722991198750e-03
9.075926523916e-04 5.562794617161e+01 5.810062000790e+04 5.810062012611e+04 3.391147594559e+05 2.236952576777e+12 2.751959454979e-03
9.081113521647e-04 5.586068891822e+01 5.790274820778e+04 5.790274837890e+04 3.387463677372e+05 2.232778483166e+12 2.780924269521e-03
9.086296898898e-04 5.598706880055e+01 5.773834163875e+04 5.773834184661e+04 3.382425829120e+05 2.226967534709e+12 2.809963151615e-03
9.091486946338e-04 5.602563502893e+01 5.760308611340e+04 5.760308603041e+04 3.376335777005e+05 2.219940774203e+12 2.839070719679e-03
9.096687702340e-04 5.604396831056e+01 5.746922989015e+04 5.746922987966e+04 3.369658535181e+05 2.212315121196e+12 2.868221067353e-03
9.101889617153e-04 5.610906241358e+01 5.731169271669e+04 5.731169258571e+04 3.362973791269e+05 2.204819874925e+12 2.897351015969e-03
9.107071033432e-04 5.626117268504e+01 5.712478806493e+04 5.712478792802e+04 3.357128244766e+05 2.198439213317e+12 2.926423243319e-03
9.112224356357e-04 5.651792694906e+01 5.692369747314e+04 5.692369748387e+04 3.353308568422e+05 2.194646938149e+12 2.955420242341e-03
9.117332202086e-04 5.683472942005e+01 5.674198096181e+04 5.674198088677e+04 3.352255653922e+05 2.193969587470e+12 2.984365849388e-03
9.122410243522e-04 5.712849185742e+01 5.659203220447e+04 5.659203227545e+04 3.351926349847e+05 2.194408032595e+12 3.013325700066e-03
9.127470698566e-04 5.735401651200e+01 5.648439408872e+04 5.648439409482e+04 3.352174579831e+05 2.195159123044e+12 3.042347959107e-03
9.132530636410e-04 5.753094927728e+01 5.640926822155e+04 5.640926807053e+04 3.352887654019e+05 2.196299778491e+12 3.071448197096e-03
9.137587075352e-04 5.771401450885e+01 5.633853062328e+04 5.633853079025e+04 3.354179533043e+05 2.197891644045e+12 3.100603426177e-03
9.142633981093e-04 5.796635147111e+01 5.624108474620e+04 5.624108465531e+04 3.356082778950e+05 2.200051161036e+12 3.129746941873e-03
9.147642397089e-04 5.829935697267e+01 5.611320290001e+04 5.611320274696e+04 3.358580220705e+05 2.202878170999e+12 3.158821148103e-03
9.152608089810e-04 5.869895452974e+01 5.596417031664e+04 5.596417020051e+04 3.361634460591e+05 2.206448394248e+12 3.187824053401e-03
9.157524312543e-04 5.913103736305e+01 5.581247533341e+04 5.581247556953e+04 3.365214350029e+05 2.210787148144e+12 3.216763579499e-03
9.162396359182e-04 5.953189133523e+01 5.568984656306e+04 5.568984671567e+04 3.369304519316e+05 2.215857905201e+12 3.245715941709e-03
9.167250985613e-04 5.987506010693e+01 5.560742156912e+04 5.560742179263e+04 3.373895857199e+05 2.221567372556e+12 3.274733314837e-03
9.172089000184e-04 6.015356151440e+01 5.556571335182e+04 5.556571325669e+04 3.378957662994e+05 2.227775051527e+12 3.303818515766e-03
9.176921302780e-04 6.042721585558e+01 5.553209751336e+04 5.553209738544e+04 3.384425484975e+05 2.234323715281e+12 3.332962774375e-03
9.181735070484e-04 6.074173038062e+01 5.548171571137e+04 5.548171557027e+04 3.390195861323e+05 2.241064301662e+12 3.362107496557e-03
9.186517579343e-04 6.113368089003e+01 5.539483611140e+04 5.539483607442e+04 3.396129282018e+05 2.247851765037e+12 3.391203604680e-03
9.191253917607e-04 6.157973721557e+01 5.528144171383e+04 5.528144193255e+04 3.402069814845e+05 2.254545788763e+12 3.420242938746e-03
9.195949036955e-04 6.205570933230e+01 5.515230896113e+04 5.515230891649e+04 3.407882734202e+05 2.261047918164e+12 3.449226453836e-03
9.200595045249e-04 6.250936817904e+01 5.503006817669e+04 5.503006818213e+04 3.413377282509e+05 2.267192641521e+12 3.478165234476e-03
