# time = 2.000000000000e-09
# x  density  temperature  T_rad  velocity_x  pressure  mass_coord
-5.276778898453e-02 3.862932663099e-04 1.157176394478e+06 1.160074632541e+06 -3.002562531502e+07 9.822082819732e+09 2.277356822400e-06
-4.768574564272e-02 4.623605122864e-04 1.149311496558e+06 1.159881776926e+06 -2.729474519907e+07 1.133964301681e+10 4.436163311168e-06
-4.342959321997e-02 7.292213653528e-04 1.152129090687e+06 1.159641447141e+06 -2.538391733976e+07 1.684521066735e+10 7.402823039524e-06
-3.954923217970e-02 1.088767786010e-03 1.152127223464e+06 1.159289331691e+06 -2.336354500781e+07 2.377828760885e+10 1.140893396571e-05
-3.607061185101e-02 1.564181389308e-03 1.152501810633e+06 1.158796506258e+06 -2.151412431947e+07 3.248845452968e+10 1.648927894163e-05
-3.305338072584e-02 2.157655099539e-03 1.152549783989e+06 1.158151135789e+06 -1.989858509339e+07 4.284455126541e+10 2.256441958288e-05
-3.043936833804e-02 2.863058871430e-03 1.152273490836e+06 1.157352671906e+06 -1.849950688351e+07 5.462337123611e+10 2.957001947286e-05
-2.815959390233e-02 3.673224089782e-03 1.151733710772e+06 1.156401891238e+06 -1.728338643125e+07 6.762692778487e+10 3.739257509600e-05
-2.618013697510e-02 4.573393009929e-03 1.150973094532e+06 1.155313417935e+06 -1.622660423412e+07 8.156896521046e+10 4.583886611890e-05
-2.446592882497e-02 5.543201746749e-03 1.150031012789e+06 1.154108857502e+06 -1.530946207739e+07 9.611363901197e+10 5.471593354335e-05
-2.297727053436e-02 6.564174217627e-03 1.148946449743e+06 1.152812583575e+06 -1.451123478684e+07 1.109864839496e+11 6.387482872421e-05
-2.167535841133e-02 7.622858392883e-03 1.147750806844e+06 1.151441945729e+06 -1.381171962152e+07 1.260065356873e+11 7.321999179491e-05
-2.052539157006e-02 8.711220360833e-03 1.146465437977e+06 1.150009823158e+06 -1.319277162266e+07 1.410785653946e+11 8.270424813791e-05
-1.949787788618e-02 9.825931809088e-03 1.145102800976e+06 1.148521253800e+06 -1.263893637106e+07 1.561737838160e+11 9.231690624548e-05
-1.856880194694e-02 1.096713784646e-02 1.143668590751e+06 1.146977814143e+06 -1.213754949272e+07 1.713073899773e+11 1.020705556403e-04
-1.771917326308e-02 1.213715296680e-02 1.142163938240e+06 1.145376530551e+06 -1.167853297168e+07 1.865183342836e+11 1.119896553626e-04
-1.693430005849e-02 1.333935932780e-02 1.140587280980e+06 1.143713950304e+06 -1.125404669519e+07 2.018539546757e+11 1.221020932318e-04
-1.620299281983e-02 1.457740323608e-02 1.138935742063e+06 1.141984565642e+06 -1.085809143663e+07 2.173598108028e+11 1.324337812084e-04
-1.551680644740e-02 1.585467884819e-02 1.137206055582e+06 1.140184450417e+06 -1.048611915906e+07 2.330738855524e+11 1.430058345573e-04
-1.486937345735e-02 1.717406339013e-02 1.135395143328e+06 1.138309095537e+06 -1.013468532976e+07 2.490242452352e+11 1.538337112798e-04
-1.425584956417e-02 1.853786781413e-02 1.133500401220e+06 1.136355480225e+06 -9.801161475723e+06 2.652293890086e+11 1.649276814801e-04
-1.367247526910e-02 1.994794652819e-02 1.131519721400e+06 1.134320767369e+06 -9.483509796134e+06 2.817003589846e+11 1.762940564840e-04
-1.311624604781e-02 2.140588069946e-02 1.129451311625e+06 1.132202630964e+06 -9.180110594986e+06 2.984434399445e+11 1.879366986771e-04
-1.258467679386e-02 2.291314922562e-02 1.127293429831e+06 1.129998898592e+06 -8.889631686766e+06 3.154624146157e+11 1.998584491135e-04
-1.207564265288e-02 2.447124168023e-02 1.125044155480e+06 1.127707392922e+06 -8.610933324159e+06 3.327599282153e+11 2.120622454298e-04
-1.158727776721e-02 2.608172128000e-02 1.122701263981e+06 1.125325390397e+06 -8.343005789423e+06 3.503381732997e+11 2.245518390656e-04
-1.111791493992e-02 2.774627832084e-02 1.120262200526e+06 1.122850514200e+06 -8.084936240247e+06 3.681994325514e+11 2.373321331797e-04
-1.066605193891e-02 2.946681153239e-02 1.117724102430e+06 1.120279009436e+06 -7.835898020079e+06 3.863469061710e+11 2.504092330439e-04
-1.023033333987e-02 3.124554263617e-02 1.115083805319e+06 1.117608050059e+06 -7.595152186364e+06 4.047858317434e+11 2.637903248038e-04
-9.809539897135e-03 3.308512606111e-02 1.112337790553e+06 1.114833072621e+06 -7.362049724822e+06 4.235244217132e+11 2.774834836668e-04
-9.402580177453e-03 3.498868997050e-02 1.109482083676e+06 1.111950499252e+06 -7.136025538828e+06 4.425739261112e+11 2.914974745206e-04
-9.008481562819e-03 3.695976478056e-02 1.106512167277e+06 1.108955239050e+06 -6.916582023617e+06 4.619474445184e+11 3.058415673931e-04
-8.626379735828e-03 3.900212043914e-02 1.103422978147e+06 1.105842787976e+06 -6.703267847267e+06 4.816578627642e+11 3.205253653662e-04
-8.255507221537e-03 4.111960034471e-02 1.100209005885e+06 1.102607481912e+06 -6.495661424195e+06 5.017159432726e+11 3.355586404737e-04
-7.895182205629e-03 4.331605288259e-02 1.096864437583e+06 1.099244003920e+06 -6.293365696484e+06 5.221295951739e+11 3.509511858253e-04
-7.544798635352e-03 4.559540569359e-02 1.093383260737e+06 1.095745935722e+06 -6.096013575175e+06 5.429046403121e+11 3.667127041754e-04
-7.203817884581e-03 4.796184240462e-02 1.089759265296e+06 1.092107314717e+06 -5.903277180620e+06 5.640464859599e+11 3.828527529125e-04
-6.871761573896e-03 5.041998489189e-02 1.085985945320e+06 1.088320941712e+06 -5.714872752706e+06 5.855616248180e+11 3.993807521242e-04
-6.548204867353e-03 5.297498932510e-02 1.082056352504e+06 1.084380059162e+06 -5.530556752756e+06 6.074580748116e+11 4.163060438298e-04
-6.232769780932e-03 5.563252579110e-02 1.077962971036e+06 1.080276805942e+06 -5.350114494501e+06 6.297445902003e+11 4.336379770693e-04
-5.925118534562e-03 5.839869494360e-02 1.073697662062e+06 1.076003226253e+06 -5.173347260641e+06 6.524293081046e+11 4.513859922943e-04
-5.624947457432e-03 6.127998927952e-02 1.069251671704e+06 1.071550738333e+06 -5.000064622418e+06 6.755189149633e+11 4.695596889874e-04
-5.331982115748e-03 6.428338651788e-02 1.064615644015e+06 1.066909947213e+06 -4.830084902355e+06 6.990190651792e+11 4.881688748024e-04
-5.045974045388e-03 6.741657065132e-02 1.059779568315e+06 1.062071031413e+06 -4.663240847849e+06 7.229358154276e+11 5.072236026669e-04
-4.766698901831e-03 7.068817944515e-02 1.054732637376e+06 1.057023170721e+06 -4.499384052200e+06 7.472769887412e+11 5.267342002608e-04
-4.493955369931e-03 7.410795864555e-02 1.049463056660e+06 1.051754453830e+06 -4.338383272841e+06 7.720523826570e+11 5.467112896798e-04
-4.227564110263e-03 7.768678572472e-02 1.043957874663e+06 1.046252530688e+06 -4.180117072512e+06 7.972726366986e+11 5.671657943558e-04
-3.967366337184e-03 8.143664525425e-02 1.038202870788e+06 1.040502715774e+06 -4.024465679259e+06 8.229476341560e+11 5.881089407116e-04
-3.713222040046e-03 8.537069808873e-02 1.032182474597e+06 1.034490516258e+06 -3.871307166639e+06 8.490856744490e+11 6.095522777948e-04
-3.465008091010e-03 8.950354561565e-02 1.025879650369e+06 1.028198210410e+06 -3.720519454963e+06 8.756940896682e+11 6.315077462744e-04
-3.222616481829e-03 9.385169195594e-02 1.019275689621e+06 1.021607918421e+06 -3.571985715946e+06 9.027810313933e+11 6.539878122442e-04
-2.985952988192e-03 9.843410818494e-02 1.012349901088e+06 1.014698588008e+06 -3.425599397090e+06 9.303573758288e+11 6.770055229040e-04
-2.754938944352e-03 1.032728872171e-01 1.005079022733e+06 1.007447171697e+06 -3.281261130851e+06 9.584382032279e+11 7.005756948979e-04
-2.529489096671e-03 1.083937692393e-01 9.974365688291e+05 9.998278232954e+05 -3.138869719344e+06 9.870421992536e+11 7.247147401456e-04
-2.309543504797e-03 1.138259776828e-01 9.893931003457e+05 9.918109181512e+05 -2.998326499013e+06 1.016186326062e+12 7.494361608161e-04
-2.095116887906e-03 1.196017016682e-01 9.809173763057e+05 9.833667214757e+05 -2.859553507067e+06 1.045879284471e+12 7.747461994808e-04
-1.886304732911e-03 1.257559752018e-01 9.719775928733e+05 9.744628906545e+05 -2.722514913400e+06 1.076118690348e+12 8.006399064275e-04
-1.683308114524e-03 1.323266691196e-01 9.625428494772e+05 9.650700976261e+05 -2.587241006799e+06 1.106889864581e+12 8.270960122706e-04
-1.486444205640e-03 1.393542941586e-01 9.525846756380e+05 9.551594329912e+05 -2.453841615078e+06 1.138163880438e+12 8.540737729346e-04
-1.296125777204e-03 1.468819027698e-01 9.420776628372e+05 9.447070964702e+05 -2.322491544581e+06 1.169895331361e+12 8.815139533544e-04
-1.112808245015e-03 1.549553752447e-01 9.309986003197e+05 9.336904658428e+05 -2.193385065646e+06 1.202020040768e+12 9.093443272090e-04
-9.369207633645e-04 1.636249098315e-01 9.193244296922e+05 9.220883317484e+05 -2.066683114665e+06 1.234457467121e+12 9.374879197641e-04
-7.688069241398e-04 1.729496960851e-01 9.070295103624e+05 9.098758139815e+05 -1.942498497831e+06 1.267129045877e+12 9.658712869586e-04
-6.086939108521e-04 1.830061747448e-01 8.940817237377e+05 8.970213869491e+05 -1.820919584240e+06 1.299988873208e+12 9.944307566425e-04
-4.566921037115e-04 1.938953124186e-01 8.804371726432e+05 8.834826015622e+05 -1.701999066872e+06 1.333032774164e+12 1.023115655617e-03
-3.128136379680e-04 2.057436382570e-01 8.660347928769e+05 8.692021469805e+05 -1.585660750235e+06 1.366258287862e+12 1.051888469453e-03
-1.769963223024e-04 2.187031159822e-01 8.507944090428e+05 8.541056883332e+05 -1.471622892276e+06 1.399620279599e+12 1.080722910338e-03
-4.912794921769e-05 2.329733583097e-01 8.346201520537e+05 8.380971340922e+05 -1.359578907424e+06 1.433115252846e+12 1.109601969087e-03
7.092094135605e-05 2.488516083720e-01 8.173912212843e+05 8.210543020971e+05 -1.249498549284e+06 1.466939785206e+12 1.138517180883e-03
1.832612403540e-04 2.667268960459e-01 7.989266180200e+05 8.028158374315e+05 -1.141129069625e+06 1.501218925859e+12 1.167465809016e-03
2.879866258575e-04 2.870216297288e-01 7.789925743951e+05 7.831759913210e+05 -1.033271460881e+06 1.535590564856e+12 1.196444400729e-03
3.851874278685e-04 3.104268066041e-01 7.573601471733e+05 7.618712941357e+05 -9.255467771583e+05 1.570306370250e+12 1.225451599997e-03
4.748725432567e-04 3.383114439243e-01 7.336699263447e+05 7.385310238339e+05 -8.194375684671e+05 1.607048738318e+12 1.254503004087e-03
5.569309772624e-04 3.721649435783e-01 7.071837018834e+05 7.125970820778e+05 -7.128371463530e+05 1.644749012563e+12 1.283617777824e-03
6.313342102608e-04 4.134378225821e-01 6.769998362016e+05 6.833110486665e+05 -5.994578869975e+05 1.679074731146e+12 1.312766492298e-03
6.979374981091e-04 4.680557520941e-01 6.423259022457e+05 6.495954263825e+05 -4.784121627121e+05 1.717434447916e+12 1.341912586108e-03
7.558753303271e-04 5.448623921914e-01 6.012201465841e+05 6.093995084484e+05 -3.657137885177e+05 1.760661486883e+12 1.371129447332e-03
8.051824158815e-04 6.606370922339e-01 5.464044690107e+05 5.586439322080e+05 -2.485693208754e+05 1.783226366304e+12 1.399544521051e-03
8.418985768349e-04 1.236588912199e+00 4.226253696732e+05 4.656307786150e+05 6.934833975386e+04 2.027021005694e+12 1.430998183830e-03
8.560540717225e-04 6.838594179604e+00 1.676885843719e+05 1.836682761937e+05 2.916410949088e+05 2.010446966199e+12 1.487519307088e-03
8.584286184702e-04 2.817642727201e+01 7.829343487527e+04 7.521976767010e+04 3.207095627820e+05 2.008528496761e+12 1.531422284675e-03
8.591703630226e-04 4.304206006787e+01 6.239926173724e+04 5.374827710438e+04 3.210614721058e+05 2.011178847565e+12 1.561655380110e-03
8.598334348469e-04 4.369415041761e+01 6.193325712856e+04 5.207961854174e+04 3.211713996271e+05 2.013065279708e+12 1.590569523891e-03
8.604938419553e-04 4.403003066103e+01 6.171307206655e+04 5.189441776571e+04 3.213718142706e+05 2.014851965437e+12 1.619557678893e-03
8.611501795580e-04 4.436659588024e+01 6.150507237188e+04 5.171950734183e+04 3.215942497007e+05 2.017164400251e+12 1.648577003046e-03
8.618020029074e-04 4.472306948249e+01 6.129143428969e+04 5.153985716183e+04 3.218539416390e+05 2.019818667149e+12 1.677611067346e-03
8.624485727424e-04 4.511520570958e+01 6.106134393654e+04 5.134637789355e+04 3.221439568099e+05 2.022830308075e+12 1.706633271901e-03
8.630885848523e-04 4.552122025955e+01 6.083088965597e+04 5.115259404993e+04 3.224581321866e+05 2.026180666320e+12 1.735617204252e-03
8.637219978478e-04 4.590697893142e+01 6.062434622646e+04 3.409165308906e+04 3.227906651958e+05 2.029862174170e+12 1.764591463409e-03
8.643508878760e-04 4.626716978687e+01 6.044382040339e+04 3.399013347374e+04 3.231425965147e+05 2.033823783619e+12 1.793600132041e-03
8.649759612419e-04 4.663063402543e+01 6.026767813927e+04 3.389107782736e+04 3.235154426824e+05 2.038018021662e+12 1.822646784104e-03
8.655967063243e-04 4.702808625983e+01 6.007520698836e+04 3.378284397544e+04 3.239056140235e+05 2.042468054522e+12 1.851684657661e-03
8.662108774746e-04 4.745780172596e+01 5.986861833439e+04 3.366667272643e+04 3.243088292242e+05 2.047193414883e+12 1.880664689890e-03
8.668180031891e-04 4.788778842542e+01 5.966931820594e+04 3.355459986577e+04 3.247281156744e+05 2.052156985595e+12 1.909614860279e-03
8.674199610987e-04 4.828663631891e+01 5.949430740291e+04 3.345618260561e+04 3.251513379884e+05 2.057156767307e+12 1.938603568163e-03
8.680186959726e-04 4.864520250011e+01 5.933892912890e+04 3.336880427688e+04 3.255292661192e+05 2.061643117855e+12 1.967645300064e-03
8.686139835473e-04 4.896210254936e+01 5.917998869696e+04 3.327942273746e+04 3.257327588067e+05 2.064310414124e+12 1.996714392790e-03
8.692061079183e-04 4.925535189615e+01 5.899745632572e+04 3.317677779453e+04 3.257333977975e+05 2.064708541577e+12 2.025774420131e-03
8.697939579550e-04 4.956584480974e+01 5.879309769571e+04 3.306185941397e+04 3.256880316913e+05 2.064403837520e+12 2.054795097626e-03
8.703771028890e-04 4.986260634341e+01 5.858032208855e+04 3.294220778913e+04 3.255435450853e+05 2.063026636414e+12 2.083804900990e-03
8.709575474860e-04 5.011657104646e+01 5.837099172781e+04 3.282449395113e+04 3.252774385483e+05 2.060225809820e+12 2.112834306663e-03
8.715355782223e-04 5.031442376786e+01 5.817765109591e+04 3.271577075193e+04 3.249131813601e+05 2.056274042619e+12 2.141891483382e-03
8.721125712164e-04 5.047045041357e+01 5.800056020177e+04 3.261618288482e+04 3.244987912165e+05 2.051724405481e+12 2.170971454318e-03
8.726879345297e-04 5.063067276856e+01 5.782272884718e+04 3.251617988143e+04 3.240908361915e+05 2.047241432425e+12 2.200050129249e-03
8.732612296617e-04 5.082757550938e+01 5.763768012810e+04 3.241211920052e+04 3.237576304731e+05 2.043578923923e+12 2.229110535524e-03
8.738314242981e-04 5.110101558799e+01 5.744517092096e+04 3.230386250557e+04 3.236222102647e+05 2.042069818727e+12 2.258131627714e-03
8.743970619678e-04 5.141542899535e+01 5.725696931946e+04 6.461312085389e+04 3.236200262570e+05 2.042120181795e+12 2.287130551558e-03
8.749594484889e-04 5.170960868218e+01 5.708391640778e+04 4.800173683455e+04 3.236435964874e+05 2.042249707201e+12 2.316146105610e-03
8.755193119632e-04 5.197799767421e+01 5.693508900297e+04 6.742694935329e+04 3.237092067806e+05 2.042811825502e+12 2.345196025389e-03
8.760772260517e-04 5.222018955748e+01 5.681100205916e+04 4.777223271589e+04 3.238259963653e+05 2.043847693433e+12 2.374275150513e-03
8.766330239344e-04 5.247862511688e+01 5.668612139749e+04 6.526063240919e+04 3.239898867666e+05 2.045329309126e+12 2.403361761132e-03
8.771857387292e-04 5.276922832616e+01 5.655027274339e+04 6.551946554715e+04 3.241938441686e+05 2.047191706390e+12 2.432434648791e-03
8.777349118558e-04 5.310320941786e+01 5.639603522867e+04 6.535172555628e+04 3.244293577893e+05 2.049354675090e+12 2.461467278629e-03
8.782791803556e-04 5.346101584805e+01 5.623396253763e+04 6.597860723871e+04 3.246892687533e+05 2.051754740247e+12 2.490466259295e-03
8.788197764139e-04 5.380404264500e+01 5.608548782360e+04 4.716215225908e+04 3.249694845703e+05 2.054362939177e+12 2.519466050766e-03
8.793571585166e-04 5.411719952413e+01 5.595870607987e+04 6.654639133394e+04 3.252685544194e+05 2.057179465657e+12 2.548491846521e-03
8.798924777366e-04 5.439174290735e+01 5.585822293142e+04 3.141143738093e+04 3.255861988084e+05 2.060218538777e+12 2.577575067845e-03
8.804265569131e-04 5.466891892111e+01 5.576108469792e+04 6.122511709469e+04 3.259217896504e+05 2.063489708138e+12 2.606681944881e-03
8.809573196106e-04 5.497206408110e+01 5.565452879605e+04 3.129690005049e+04 3.262734437798e+05 2.066990697610e+12 2.635770297234e-03
8.814848527162e-04 5.532284114175e+01 5.552693597746e+04 3.122515670129e+04 3.266387510970e+05 2.070710243971e+12 2.664824571645e-03
8.820076732732e-04 5.570643865224e+01 5.538658467451e+04 3.114623313233e+04 3.270154124254e+05 2.074634161515e+12 2.693830568974e-03
8.825262403199e-04 5.609371813024e+01 5.524918252832e+04 3.106896684512e+04 3.274020112527e+05 2.078754270614e+12 2.722815203452e-03
8.830411092958e-04 5.645806291078e+01 5.512832126133e+04 3.100100253675e+04 3.277961786121e+05 2.083049131659e+12 2.751814396169e-03
8.835535229160e-04 5.677085033034e+01 5.503656709246e+04 3.094940431344e+04 3.281888298644e+05 2.087399285594e+12 2.780864196274e-03
8.840645147913e-04 5.705270230601e+01 5.495820536999e+04 3.090533593768e+04 3.285588250310e+05 2.091535137798e+12 2.809958403934e-03
8.845734293002e-04 5.732043698001e+01 5.487829060639e+04 3.086039480695e+04 3.288716484239e+05 2.095089748797e+12 2.839077212605e-03
8.850805157224e-04 5.759798046862e+01 5.477054365048e+04 3.079980451695e+04 3.290664641898e+05 2.097205901607e+12 2.868180908043e-03
8.855840097129e-04 5.786821925684e+01 5.463454448434e+04 3.072332691305e+04 3.290939841753e+05 2.097305868950e+12 2.897234151100e-03
8.860846331267e-04 5.816088135547e+01 5.448127889360e+04 3.063714049050e+04 3.290744325638e+05 2.096977930984e+12 2.926253945932e-03
8.865819242615e-04 5.843735159556e+01 5.432411522007e+04 3.054876182980e+04 3.289899905613e+05 2.095837749541e+12 2.955245575332e-03
8.870768625351e-04 5.865604363392e+01 5.418010568177e+04 3.046777952565e+04 3.288185992715e+05 2.093670257761e+12 2.984238266308e-03
8.875704904579e-04 5.880282765042e+01 5.405655639096e+04 3.039830188539e+04 3.285652860806e+05 2.090525217403e+12 3.013278656354e-03
8.880645834052e-04 5.888699700647e+01 5.395218356812e+04 3.033960635213e+04 3.282493564683e+05 2.086635926936e+12 3.042381733244e-03
8.885589285978e-04 5.896033378657e+01 5.384761007501e+04 3.028079959214e+04 3.279026484528e+05 2.082396298673e+12 3.071514169434e-03
8.890527879935e-04 5.906636520814e+01 5.372951146441e+04 3.021436533038e+04 3.275638574367e+05 2.078302627548e+12 3.100627129617e-03
8.895446997750e-04 5.924414249062e+01 5.359323797142e+04 3.013775488647e+04 3.273030835081e+05 2.075231745240e+12 3.129687786962e-03
8.900338354397e-04 5.950517944850e+01 5.345443374219e+04 3.005967807134e+04 3.272335662069e+05 2.074467440640e+12 3.158716937643e-03
8.905203846128e-04 5.980762790573e+01 5.331149891806e+04 2.997932155457e+04 3.272265720976e+05 2.074625130623e+12 3.187716016501e-03
8.910035806001e-04 6.009410113157e+01 5.318096912230e+04 2.990589873128e+04 3.272444531987e+05 2.075013511944e+12 3.216694410891e-03
8.914848185205e-04 6.034758687286e+01 5.307473568113e+04 6.057937603301e+04 3.272974767661e+05 2.075886542195e+12 3.245691419162e-03
8.919645803607e-04 6.055843900704e+01 5.299639447641e+04 2.980211458210e+04 3.273866672315e+05 2.077207511823e+12 3.274746076111e-03
8.924443761783e-04 6.075236926825e+01 5.293245464295e+04 6.017811526071e+04 3.275070707070e+05 2.078907525284e+12 3.303856598577e-03
8.929229140954e-04 6.096077825315e+01 5.286712403127e+04 2.972942315321e+04 3.276541179413e+05 2.080923319755e+12 3.332985694596e-03
8.934000429810e-04 6.121933627229e+01 5.278312436429e+04 2.968217075886e+04 3.278239144784e+05 2.083204515308e+12 3.362095008458e-03
8.938738983966e-04 6.152336650231e+01 5.268232169716e+04 2.962550685482e+04 3.280126981007e+05 2.085709774249e+12 3.391164717353e-03
8.943450403226e-04 6.186789162732e+01 5.256686640289e+04 2.956056087001e+04 3.282169383342e+05 2.088406623522e+12 3.420197532976e-03
8.948124406634e-04 6.223008974086e+01 5.244717971678e+04 2.949327905609e+04 3.284337126042e+05 2.091275929046e+12 3.449189050195e-03
8.952767927060e-04 6.257394840356e+01 5.233953029078e+04 2.943272254798e+04 3.286612364700e+05 2.094313647269e+12 3.478164715517e-03
